time (s)	det(V)
7408.370112	0.185966	
7408.372113	0.194996	
7408.374108	0.203225	
7408.376109	0.208839	
7408.378110	0.217500	
7408.380110	0.224714	
7408.384110	0.230400	
7408.388109	0.246457	
7408.390111	0.260327	
7408.392115	0.264748	
7408.394111	0.270725	
7408.396109	0.277338	
7408.400107	0.283396	
7408.402109	0.292703	
7408.404110	0.297483	
7408.408108	0.301664	
7408.410110	0.310965	
7408.412109	0.315275	
7408.414109	0.319180	
7408.416110	0.322801	
7408.420107	0.327514	
7408.422110	0.331471	
7408.426110	0.335220	
7408.428109	0.342471	
7408.430110	0.345476	
7408.432109	0.347678	
7408.434110	0.351565	
7408.438108	0.353505	
7408.440110	0.356043	
7408.442109	0.356758	
7408.446109	0.358881	
7408.448111	0.364236	
7408.450109	0.366188	
7408.452110	0.368269	
7408.454109	0.369153	
7408.456109	0.370709	
7408.460110	0.369721	
7408.464108	0.372236	
7408.466110	0.374572	
7408.468109	0.376294	
7408.470109	0.375033	
7408.472109	0.375360	
7408.476108	0.375273	
7408.478109	0.372386	
7408.480108	0.371114	
7408.484108	0.369534	
7408.486110	0.369849	
7408.488109	0.367968	
7408.490113	0.366077	
7408.492115	0.362827	
7408.494116	0.360461	
7408.496115	0.356946	
7408.500115	0.354355	
7408.502116	0.348619	
7408.504115	0.345970	
7408.506115	0.342375	
7408.508116	0.337599	
7408.510115	0.332773	
7408.512115	0.329974	
7408.514115	0.324556	
7408.516115	0.319322	
7408.518116	0.315907	
7408.522116	0.310677	
7408.524115	0.302472	
7408.526115	0.296649	
7408.528116	0.293000	
7408.530115	0.287840	
7408.532116	0.283324	
7408.534116	0.280183	
7408.538114	0.273681	
7408.542113	0.264805	
7408.544116	0.255912	
7408.546116	0.252246	
7408.548115	0.248512	
7408.550114	0.244740	
7408.552116	0.241610	
7408.554116	0.236958	
7408.556116	0.231446	
7408.560119	0.228153	
7408.562120	0.220753	
7408.564120	0.218212	
7408.566119	0.215397	
7408.568120	0.213960	
7408.570118	0.209843	
7408.572120	0.206753	
7408.574120	0.204701	
7408.576119	0.199964	
7408.578124	0.197085	
7408.582120	0.194589	
7408.584120	0.190855	
7408.586121	0.188275	
7408.588125	0.185959	
7408.590127	0.183860	
7408.592127	0.179659	
7408.594129	0.178308	
7408.598125	0.175477	
7408.600128	0.169617	
7408.602128	0.167476	
7408.604127	0.164524	
7408.606128	0.163158	
7408.608127	0.160572	
7408.610128	0.157159	
7408.612127	0.154678	
7408.614128	0.152489	
7408.618126	0.149256	
7408.622125	0.142964	
7408.624128	0.138611	
7408.626126	0.134796	
7408.628128	0.132937	
7408.630127	0.129634	
7408.632128	0.126627	
7408.634127	0.125070	
7408.636128	0.119983	
7408.640136	0.116406	
7408.644135	0.109983	
7408.646134	0.106827	
7408.648135	0.103495	
7408.650136	0.101227	
7408.652135	0.098719	
7408.656134	0.095041	
7408.658136	0.087896	
7408.660134	0.084680	
7408.664136	0.083098	
7408.666135	0.079928	
7408.668136	0.078173	
7408.670135	0.075232	
7408.672136	0.073350	
7408.674135	0.071423	
7408.678135	0.066200	
7408.680136	0.063679	
7408.682136	0.061610	
7408.684138	0.063023	
7408.686139	0.061080	
7408.688141	0.058857	
7408.690138	0.057432	
7408.692139	0.055419	
7408.694139	0.053785	
7408.696140	0.052290	
7408.700140	0.050562	
7408.702142	0.050388	
7408.704142	0.049961	
7408.706142	0.049567	
7408.708142	0.047981	
7408.710144	0.047085	
7408.712142	0.046903	
7408.714143	0.045986	
7408.716141	0.043789	
7408.720140	0.044358	
7408.722142	0.043169	
7408.724142	0.044284	
7408.726140	0.042179	
7408.728142	0.042233	
7408.730142	0.041812	
7408.732142	0.041662	
7408.736139	0.041846	
7408.738142	0.039353	
7408.740141	0.038785	
7408.742142	0.037013	
7408.744142	0.037531	
7408.746141	0.037668	
7408.748141	0.037072	
7408.750142	0.037034	
7408.752141	0.036529	
7408.756139	0.034294	
7408.760140	0.031902	
7408.762142	0.031221	
7408.764141	0.030296	
7408.766141	0.029158	
7408.768141	0.029204	
7408.770141	0.027973	
7408.772141	0.026531	
7408.774142	0.024425	
7408.778141	0.021571	
7408.780141	0.020832	
7408.782142	0.019037	
7408.784144	0.021331	
7408.786144	0.019113	
7408.788144	0.017536	
7408.790143	0.017056	
7408.792144	0.014752	
7408.794144	0.013129	
7408.798142	0.011117	
7408.802143	0.010195	
7408.804143	0.009441	
7408.806143	0.008961	
7408.808142	0.006428	
7408.810143	0.005718	
7408.814141	0.005895	
7408.816143	0.002074	
7408.818144	0.002413	
7408.822143	0.000817	
7408.824144	0.001974	
7408.826144	-0.000364	
7408.828143	-0.000459	
7408.830144	-0.000318	
7408.832144	-0.001318	
7408.834148	-0.002466	
7408.838145	-0.002873	
7408.840145	-0.003250	
7408.842146	-0.003496	
7408.844145	-0.002955	
7408.846146	-0.002858	
7408.848146	-0.003324	
7408.850146	-0.002295	
7408.852145	-0.002904	
7408.854145	-0.004672	
7408.858144	-0.005103	
7408.860145	-0.005478	
7408.862146	-0.003706	
7408.864146	-0.002611	
7408.866145	-0.003508	
7408.868145	-0.002814	
7408.870146	-0.003170	
7408.874144	-0.003561	
7408.878144	-0.006847	
7408.880146	-0.005069	
7408.882146	-0.005301	
7408.884146	-0.003175	
7408.886148	-0.005127	
7408.888149	-0.005935	
7408.890149	-0.005923	
7408.892150	-0.009364	
7408.896153	-0.009556	
7408.900153	-0.010882	
7408.902152	-0.009776	
7408.904154	-0.011578	
7408.906154	-0.012544	
7408.908154	-0.013856	
7408.912151	-0.015409	
7408.914153	-0.018399	
7408.916152	-0.019202	
7408.920153	-0.019091	
7408.922155	-0.021508	
7408.924153	-0.022664	
7408.926154	-0.025861	
7408.928153	-0.025887	
7408.930154	-0.027349	
7408.932154	-0.030507	
7408.936160	-0.029685	
7408.938162	-0.033041	
7408.940162	-0.033075	
7408.942162	-0.035807	
7408.944161	-0.037002	
7408.946162	-0.038011	
7408.948164	-0.039274	
7408.952159	-0.040248	
7408.954162	-0.044184	
7408.956161	-0.045766	
7408.960160	-0.046527	
7408.962161	-0.047388	
7408.964162	-0.048491	
7408.966160	-0.049507	
7408.968160	-0.049065	
7408.972160	-0.051701	
7408.974161	-0.053729	
7408.976162	-0.056356	
7408.978160	-0.056356	
7408.980162	-0.055391	
7408.982162	-0.056039	
7408.984167	-0.055517	
7408.986165	-0.056729	
7408.988165	-0.058039	
7408.992163	-0.058286	
7408.994166	-0.061733	
7408.998165	-0.062047	
7409.000165	-0.061083	
7409.002165	-0.061650	
7409.004166	-0.063514	
7409.006166	-0.063370	
7409.010164	-0.064878	
7409.012166	-0.068375	
7409.014166	-0.068927	
7409.018165	-0.069833	
7409.020166	-0.070064	
7409.022165	-0.071630	
7409.024166	-0.073202	
7409.026165	-0.075319	
7409.028166	-0.076400	
7409.032164	-0.079755	
7409.036164	-0.081829	
7409.038166	-0.084777	
7409.040164	-0.087599	
7409.042166	-0.090959	
7409.044165	-0.093203	
7409.048163	-0.095365	
7409.050166	-0.102216	
7409.052165	-0.105080	
7409.056165	-0.109080	
7409.058166	-0.113848	
7409.060166	-0.117864	
7409.062166	-0.120597	
7409.064165	-0.124403	
7409.066164	-0.128556	
7409.068166	-0.132024	
7409.072165	-0.137011	
7409.074166	-0.144318	
7409.076164	-0.148342	
7409.078164	-0.151322	
7409.080167	-0.155211	
7409.082167	-0.159124	
7409.084169	-0.161284	
7409.086169	-0.166535	
7409.088170	-0.172051	
7409.090172	-0.174562	
7409.094178	-0.183337	
7409.096178	-0.185007	
7409.098177	-0.189083	
7409.100178	-0.191771	
7409.102178	-0.195458	
7409.104178	-0.198667	
7409.108175	-0.202050	
7409.112176	-0.210231	
7409.114178	-0.214105	
7409.116178	-0.216131	
7409.118178	-0.217632	
7409.120177	-0.221494	
7409.122178	-0.224064	
7409.124177	-0.225444	
7409.126178	-0.231114	
7409.130178	-0.233255	
7409.132179	-0.237355	
7409.134179	-0.237413	
7409.136182	-0.239029	
7409.138182	-0.241047	
7409.140181	-0.242753	
7409.142182	-0.246887	
7409.144180	-0.248090	
7409.146181	-0.250077	
7409.148187	-0.254418	
7409.152188	-0.255671	
7409.154186	-0.260735	
7409.156187	-0.261889	
7409.158189	-0.264878	
7409.160187	-0.268420	
7409.162187	-0.270794	
7409.164187	-0.273293	
7409.166187	-0.277112	
7409.168191	-0.281050	
7409.172188	-0.284952	
7409.174190	-0.292422	
7409.176190	-0.296231	
7409.178190	-0.299443	
7409.180192	-0.303372	
7409.182195	-0.307803	
7409.184194	-0.310693	
7409.188191	-0.315775	
7409.190195	-0.326206	
7409.192194	-0.332300	
7409.194194	-0.336389	
7409.196193	-0.339173	
7409.198194	-0.344424	
7409.200194	-0.347564	
7409.202193	-0.353092	
7409.204193	-0.357225	
7409.208192	-0.362277	
7409.212192	-0.372313	
7409.214193	-0.377067	
7409.216194	-0.379877	
7409.218195	-0.381898	
7409.220192	-0.385218	
7409.222193	-0.387322	
7409.224194	-0.388573	
7409.226194	-0.393002	
7409.230202	-0.393275	
7409.232201	-0.393741	
7409.234201	-0.392156	
7409.236203	-0.390920	
7409.238202	-0.390486	
7409.240202	-0.388204	
7409.242202	-0.388374	
7409.244201	-0.385021	
7409.246200	-0.382824	
7409.250206	-0.382075	
7409.254208	-0.373818	
7409.256208	-0.364537	
7409.258208	-0.360302	
7409.260208	-0.356126	
7409.262208	-0.350063	
7409.266205	-0.344442	
7409.268208	-0.333200	
7409.270207	-0.327835	
7409.274208	-0.322042	
7409.276207	-0.308887	
7409.278208	-0.301815	
7409.280209	-0.295519	
7409.282212	-0.289002	
7409.284212	-0.281183	
7409.286211	-0.276699	
7409.290222	-0.270773	
7409.292222	-0.258762	
7409.294223	-0.251019	
7409.296222	-0.243681	
7409.298221	-0.238018	
7409.300224	-0.230912	
7409.302220	-0.224851	
7409.304220	-0.219977	
7409.306220	-0.215674	
7409.308222	-0.209774	
7409.312232	-0.203866	
7409.314232	-0.190085	
7409.316230	-0.184162	
7409.318231	-0.177298	
7409.320231	-0.172399	
7409.322232	-0.166074	
7409.324230	-0.160034	
7409.328229	-0.157703	
7409.332230	-0.144673	
7409.334232	-0.128959	
7409.336231	-0.123625	
7409.338231	-0.117675	
7409.340232	-0.110813	
7409.342231	-0.105039	
7409.344232	-0.097685	
7409.346231	-0.091445	
7409.350233	-0.085112	
7409.354233	-0.068002	
7409.356233	-0.050450	
7409.358234	-0.043695	
7409.360234	-0.035723	
7409.362233	-0.025531	
7409.366231	-0.015679	
7409.368234	0.002428	
7409.370231	0.011140	
7409.374233	0.020014	
7409.376235	0.039547	
7409.378234	0.049439	
7409.380235	0.058481	
7409.382234	0.067863	
7409.384237	0.078517	
7409.386241	0.086454	
7409.390246	0.094934	
7409.392246	0.111919	
7409.394246	0.122916	
7409.396245	0.133165	
7409.398245	0.141808	
7409.400244	0.151451	
7409.402244	0.159013	
7409.404246	0.166874	
7409.406246	0.173860	
7409.410244	0.181733	
7409.412245	0.198279	
7409.414244	0.206651	
7409.416245	0.214272	
7409.418246	0.222719	
7409.420246	0.228435	
7409.422246	0.236174	
7409.424245	0.242663	
7409.426245	0.244943	
7409.428247	0.253222	
7409.432248	0.260166	
7409.434248	0.274618	
7409.436248	0.279905	
7409.438248	0.285302	
7409.440247	0.291353	
7409.442248	0.295104	
7409.444246	0.301429	
7409.448246	0.305518	
7409.450248	0.315505	
7409.452247	0.320581	
7409.454246	0.324296	
7409.456253	0.330123	
7409.458256	0.333742	
7409.460256	0.337553	
7409.462255	0.342103	
7409.464255	0.346204	
7409.468254	0.350104	
7409.472253	0.354531	
7409.474256	0.362434	
7409.476256	0.363698	
7409.478262	0.367220	
7409.480263	0.369234	
7409.482262	0.371376	
7409.484261	0.374903	
7409.486261	0.374176	
7409.488262	0.375625	
7409.492260	0.377004	
7409.494261	0.378269	
7409.496261	0.380913	
7409.498261	0.381215	
7409.500261	0.382941	
7409.502261	0.381999	
7409.504261	0.381047	
7409.506262	0.380681	
7409.508262	0.378430	
7409.510263	0.376458	
7409.514261	0.375903	
7409.516262	0.374335	
7409.518261	0.373327	
7409.520262	0.370820	
7409.522260	0.368536	
7409.524259	0.366022	
7409.526262	0.361661	
7409.530259	0.358218	
7409.534259	0.351639	
7409.536262	0.346123	
7409.538261	0.341767	
7409.540262	0.339036	
7409.542262	0.333301	
7409.544263	0.331141	
7409.546261	0.327316	
7409.548261	0.321394	
7409.552262	0.318839	
7409.554262	0.310081	
7409.556261	0.306085	
7409.558262	0.302504	
7409.560263	0.298834	
7409.562263	0.295285	
7409.564261	0.291935	
7409.566261	0.288249	
7409.568262	0.284951	
7409.572260	0.279212	
7409.576262	0.272670	
7409.578261	0.266167	
7409.580262	0.263230	
7409.582261	0.259401	
7409.584262	0.258318	
7409.588259	0.253989	
7409.590261	0.246796	
7409.592261	0.241693	
7409.596261	0.239097	
7409.598262	0.234794	
7409.600262	0.233478	
7409.602263	0.229265	
7409.604262	0.226651	
7409.606259	0.223314	
7409.608261	0.218468	
7409.612260	0.214807	
7409.614262	0.210442	
7409.616262	0.208265	
7409.618262	0.205861	
7409.620261	0.202525	
7409.622262	0.199313	
7409.624261	0.196286	
7409.626262	0.191127	
7409.628261	0.187508	
7409.632270	0.184479	
7409.634272	0.180116	
7409.636273	0.177422	
7409.638271	0.173657	
7409.640271	0.170667	
7409.642272	0.164986	
7409.644270	0.162756	
7409.648269	0.159263	
7409.652270	0.152236	
7409.654273	0.145021	
7409.656272	0.142358	
7409.658270	0.138684	
7409.660272	0.134926	
7409.662271	0.132481	
7409.664271	0.129253	
7409.666271	0.124852	
7409.670271	0.121483	
7409.672272	0.114663	
7409.674271	0.112210	
7409.676273	0.108836	
7409.678272	0.107039	
7409.680274	0.104670	
7409.682272	0.100772	
7409.684271	0.100587	
7409.686271	0.096192	
7409.688271	0.092616	
7409.692271	0.090799	
7409.694272	0.085041	
7409.696271	0.084437	
7409.698273	0.081979	
7409.700271	0.081338	
7409.702272	0.078979	
7409.704271	0.077087	
7409.706273	0.074954	
7409.708271	0.071698	
7409.710271	0.069419	
7409.714271	0.069529	
7409.716272	0.067797	
7409.718271	0.067612	
7409.720271	0.065929	
7409.722272	0.064185	
7409.724273	0.063618	
7409.726272	0.061598	
7409.730270	0.060015	
7409.734269	0.057812	
7409.736272	0.058161	
7409.738272	0.057842	
7409.740271	0.057320	
7409.742272	0.054546	
7409.744272	0.054735	
7409.746270	0.055035	
7409.748271	0.051944	
7409.752281	0.052367	
7409.756282	0.050126	
7409.758284	0.049533	
7409.760284	0.048718	
7409.762283	0.048110	
7409.764283	0.048124	
7409.768281	0.046921	
7409.770283	0.043806	
7409.772283	0.042893	
7409.776287	0.042091	
7409.778285	0.041087	
7409.780284	0.039595	
7409.782284	0.038241	
7409.784283	0.039227	
7409.786284	0.036454	
7409.788284	0.034350	
7409.790288	0.033249	
7409.794288	0.030688	
7409.796288	0.029834	
7409.798290	0.029434	
7409.800286	0.029585	
7409.802288	0.027234	
7409.804288	0.026234	
7409.806287	0.025455	
7409.810285	0.021774	
7409.814285	0.019839	
7409.816288	0.019304	
7409.818288	0.019097	
7409.820288	0.017678	
7409.822288	0.016487	
7409.824287	0.015875	
7409.826288	0.013723	
7409.828287	0.011427	
7409.832286	0.011170	
7409.834287	0.009866	
7409.836286	0.009231	
7409.838289	0.010069	
7409.840290	0.009918	
7409.842290	0.007710	
7409.844290	0.007575	
7409.846288	0.007927	
7409.848290	0.006165	
7409.852297	0.005908	
7409.856297	0.004092	
7409.858298	0.005211	
7409.860296	0.004667	
7409.862297	0.004365	
7409.864298	0.004850	
7409.868296	0.005096	
7409.870298	0.002812	
7409.872297	0.002362	
7409.876296	0.002696	
7409.878297	0.003912	
7409.880298	0.004126	
7409.882298	0.003390	
7409.884298	0.005436	
7409.886296	0.004156	
7409.888297	0.002149	
7409.892297	0.003031	
7409.894298	0.001453	
7409.896298	0.003147	
7409.898297	0.002767	
7409.900298	0.003285	
7409.902298	0.002291	
7409.904299	0.001767	
7409.908296	0.001599	
7409.912295	-0.001365	
7409.914298	-0.001067	
7409.916298	-0.000698	
7409.918298	-0.000933	
7409.920297	-0.002420	
7409.922297	-0.002694	
7409.924298	-0.003816	
7409.926298	-0.007466	
7409.930297	-0.007719	
7409.932298	-0.009754	
7409.934298	-0.008960	
7409.936300	-0.009307	
7409.938298	-0.010161	
7409.940296	-0.011003	
7409.942296	-0.014140	
7409.944299	-0.014110	
7409.946298	-0.015230	
7409.950297	-0.019155	
7409.954296	-0.019014	
7409.956298	-0.020124	
7409.958298	-0.022577	
7409.960296	-0.023767	
7409.962298	-0.023635	
7409.966296	-0.024741	
7409.968298	-0.027146	
7409.970297	-0.029010	
7409.974297	-0.030723	
7409.976298	-0.032251	
7409.978300	-0.032222	
7409.980301	-0.033313	
7409.982301	-0.033848	
7409.984302	-0.033818	
7409.986300	-0.036172	
7409.990300	-0.037692	
7409.992301	-0.039621	
7409.994302	-0.038501	
7409.996302	-0.038573	
7409.998301	-0.039198	
7410.000304	-0.039122	
7410.002301	-0.039566	
7410.004301	-0.041286	
7410.006301	-0.042812	
7410.008305	-0.044142	
7410.012302	-0.044422	
7410.014302	-0.043662	
7410.016301	-0.042973	
7410.018301	-0.043815	
7410.020300	-0.044406	
7410.022302	-0.045051	
7410.024301	-0.045473	
7410.028300	-0.048537	
7410.032300	-0.049091	
7410.034301	-0.048510	
7410.036302	-0.049447	
7410.038302	-0.050806	
7410.040302	-0.051350	
7410.042302	-0.053490	
7410.044301	-0.053953	
7410.046301	-0.056360	
7410.050301	-0.058569	
7410.052301	-0.060158	
7410.054301	-0.062543	
7410.056301	-0.062201	
7410.058302	-0.064521	
7410.060302	-0.066240	
7410.062302	-0.067749	
7410.064302	-0.069528	
7410.066300	-0.072134	
7410.070301	-0.075045	
7410.074300	-0.080202	
7410.076303	-0.085221	
7410.078302	-0.086753	
7410.080307	-0.090394	
7410.082308	-0.092224	
7410.086306	-0.094209	
7410.088306	-0.102958	
7410.090307	-0.105495	
7410.094307	-0.109813	
7410.096307	-0.113616	
7410.098308	-0.117615	
7410.100308	-0.119670	
7410.102308	-0.123437	
7410.104306	-0.127245	
7410.108314	-0.131892	
7410.112313	-0.138899	
7410.114314	-0.143141	
7410.116314	-0.146085	
7410.118314	-0.148954	
7410.120314	-0.151609	
7410.124311	-0.155418	
7410.126314	-0.163716	
7410.128313	-0.166247	
7410.132312	-0.167807	
7410.134313	-0.170553	
7410.136314	-0.173678	
7410.138311	-0.177779	
7410.140314	-0.178520	
7410.142313	-0.183411	
7410.144313	-0.186345	
7410.148312	-0.188467	
7410.150313	-0.191443	
7410.152314	-0.193513	
7410.154313	-0.195760	
7410.156314	-0.198182	
7410.158313	-0.201424	
7410.160314	-0.203597	
7410.162312	-0.205339	
7410.164314	-0.209521	
7410.168312	-0.210724	
7410.170312	-0.216418	
7410.172314	-0.217696	
7410.174315	-0.220754	
7410.176317	-0.224484	
7410.178315	-0.226961	
7410.180314	-0.229399	
7410.184312	-0.233627	
7410.188312	-0.240582	
7410.190315	-0.247040	
7410.192313	-0.251899	
7410.194313	-0.255489	
7410.196313	-0.260146	
7410.198314	-0.264669	
7410.200314	-0.267879	
7410.204311	-0.274264	
7410.206313	-0.284494	
7410.210314	-0.290620	
7410.212315	-0.298048	
7410.214314	-0.303546	
7410.216314	-0.308939	
7410.218314	-0.313119	
7410.222312	-0.319533	
7410.224314	-0.331820	
7410.226314	-0.338788	
7410.230314	-0.343166	
7410.232314	-0.351361	
7410.234314	-0.354823	
7410.236314	-0.360523	
7410.238312	-0.365051	
7410.240313	-0.368836	
7410.244314	-0.376114	
7410.246314	-0.382048	
7410.248312	-0.384938	
7410.250314	-0.384937	
7410.252316	-0.387692	
7410.254314	-0.390963	
7410.256314	-0.392267	
7410.258314	-0.394737	
7410.260313	-0.395953	
7410.264312	-0.397046	
7410.268312	-0.396382	
7410.270314	-0.394344	
7410.272314	-0.393060	
7410.274314	-0.391982	
7410.276319	-0.390796	
7410.280313	-0.388095	
7410.282315	-0.384521	
7410.284316	-0.379992	
7410.288315	-0.377605	
7410.290316	-0.368672	
7410.292317	-0.366550	
7410.294315	-0.362511	
7410.296315	-0.357511	
7410.298315	-0.353252	
7410.302314	-0.349194	
7410.306315	-0.341462	
7410.308314	-0.330759	
7410.310315	-0.325706	
7410.312314	-0.321040	
7410.314316	-0.315987	
7410.318313	-0.310933	
7410.320316	-0.302284	
7410.322315	-0.297548	
7410.326315	-0.292887	
7410.328315	-0.281719	
7410.330316	-0.277105	
7410.332314	-0.272830	
7410.334317	-0.266532	
7410.336315	-0.263197	
7410.338319	-0.260516	
7410.342320	-0.254855	
7410.344322	-0.246069	
7410.346322	-0.240282	
7410.348321	-0.235667	
7410.350322	-0.229756	
7410.352321	-0.225608	
7410.354321	-0.220402	
7410.358319	-0.215532	
7410.362320	-0.207397	
7410.364322	-0.194721	
7410.366321	-0.187653	
7410.368322	-0.180937	
7410.370320	-0.175450	
7410.372322	-0.168699	
7410.374323	-0.161886	
7410.376324	-0.156669	
7410.380325	-0.148885	
7410.382326	-0.133757	
7410.384325	-0.123822	
7410.386326	-0.114229	
7410.388328	-0.106010	
7410.390328	-0.097055	
7410.392328	-0.090832	
7410.394327	-0.080360	
7410.396327	-0.070841	
7410.398333	-0.062167	
7410.402340	-0.051548	
7410.404339	-0.033046	
7410.406340	-0.021190	
7410.408340	-0.011796	
7410.410339	-0.000413	
7410.412338	0.009168	
7410.414340	0.020109	
7410.416338	0.028997	
7410.418342	0.037906	
7410.422339	0.047321	
7410.424340	0.066467	
7410.426340	0.075609	
7410.428339	0.085743	
7410.430340	0.095338	
7410.432340	0.103618	
7410.434340	0.115067	
7410.436338	0.121445	
7410.438340	0.129024	
7410.442338	0.138236	
7410.444339	0.154847	
7410.446340	0.163624	
7410.448340	0.171130	
7410.450340	0.180845	
7410.452340	0.187914	
7410.454339	0.195447	
7410.456339	0.202329	
7410.460339	0.206682	
7410.462339	0.222342	
7410.466341	0.229226	
7410.468341	0.243779	
