num crossings	time (s)	maj axis (mm)	min axis (mm)	theta (rad )	slope (V/s)
5017	6081.985169	47.082424	-10.624807	2.498974	4.976518
5019	6084.068497	46.911164	-10.543989	2.498103	4.452593
5023	6088.232673	46.931408	-10.474941	2.497601	4.761492
5025	6090.314413	47.109586	-10.159257	2.498838	4.963293
5027	6092.399373	47.025313	-10.375965	2.495710	4.244537
5029	6094.476884	45.740328	-9.241324	2.481409	4.578907
5031	6096.560701	46.960391	-10.352855	2.484816	4.138112
5033	6098.642328	46.901543	-10.133129	2.487181	4.655250
5035	6100.731217	46.973543	-10.135765	2.489068	4.592059
5037	6102.810908	47.311179	-10.166488	2.482294	4.284303
5039	6104.887286	47.539315	-9.879330	2.481469	4.393220
5041	6106.975935	47.118618	-10.052318	2.481736	4.318943
5043	6109.060032	47.537230	-10.054946	2.480610	4.939075
5045	6111.141878	47.636722	-9.923759	2.477055	4.395273
5047	6113.219632	46.804720	-9.892100	2.467699	4.873291
5049	6115.306668	47.574042	-9.750108	2.474954	4.644185
5051	6117.390112	47.210029	-9.819065	2.472606	4.879872
5053	6119.475445	47.299373	-9.625111	2.466769	4.772061
5055	6121.554908	47.467293	-9.623418	2.465876	4.494658
5057	6123.637212	47.382893	-9.533001	2.463819	4.804911
5059	6125.720052	47.369784	-9.456002	2.461943	4.634948
5061	6127.801065	47.276867	-9.011432	2.463687	5.025563
5063	6129.884185	47.915423	-9.410179	2.462653	4.743372
5065	6131.968776	51.101322	9.290079	2.415169	4.728581
5067	6134.050141	47.383747	-9.254650	2.456224	5.099977
5069	6136.137826	47.745766	-9.174849	2.457204	4.750283
5071	6138.217164	50.927270	9.384413	2.412439	4.705303
5073	6140.297130	47.409336	-9.198502	2.453259	4.961565
5075	6142.378680	50.434344	8.952660	2.414099	4.600193
5077	6144.461120	47.743605	-9.225323	2.451042	4.947956
5079	6146.548686	47.810839	-8.986732	2.447221	4.795301
5081	6148.631357	51.391941	8.825390	2.404999	4.932385
5083	6150.709519	48.072912	-8.872416	2.443618	4.646867
5085	6152.791257	50.851577	8.675790	2.408312	4.972105
5087	6154.875026	47.444329	-8.573643	2.441062	4.745612
5089	6156.960581	47.969654	-8.677435	2.436502	4.989987
5091	6159.045013	48.008811	-8.515576	2.438509	4.600980
5093	6161.126074	48.221872	-8.494669	2.436173	4.800700
5095	6163.206070	48.318596	-8.661098	2.434254	4.884107
5097	6165.288240	47.554196	-8.470748	2.412741	4.904825
5099	6167.368688	47.646220	-8.323094	2.434020	5.045363
5101	6169.451745	47.953437	-8.270145	2.432670	5.049587
5103	6171.533908	47.802393	-8.231317	2.430756	4.983337
5105	6173.616060	47.827701	-8.172011	2.432028	5.082894
5107	6175.701166	47.922040	-8.107032	2.428440	5.012166
5109	6177.785519	47.647075	-7.566929	2.432974	4.980402
5111	6179.871497	48.144690	-8.069060	2.429512	4.879365
5113	6181.953188	47.960588	-7.876683	2.422325	5.014239
5115	6184.035199	47.990981	-7.943857	2.420764	5.057668
5117	6186.114080	48.228558	-7.804227	2.412374	5.056528
5119	6188.196162	47.888126	-7.758246	2.415117	5.146881
5121	6190.280769	47.983859	-7.697594	2.420908	5.005820
5123	6192.365768	51.082397	7.590923	2.379509	5.206026
5125	6194.449858	48.162871	-7.524011	2.413024	4.998361
5127	6196.530032	48.376226	-7.510367	2.411199	5.364016
5129	6198.609231	47.117533	-7.244950	2.411416	4.989714
5131	6200.691715	48.050163	-7.501451	2.406159	5.110926
5133	6202.772503	48.103477	-7.359529	2.406266	5.035722
5135	6204.856046	48.331722	-7.014902	2.406780	5.337974
5137	6206.941109	48.252375	-7.284995	2.406039	5.185227
5139	6209.023352	48.264919	-7.222261	2.402834	5.001312
5141	6211.107376	48.962957	-4.231517	2.400723	5.033888
5143	6213.187090	48.347395	-7.136190	2.400439	5.180397
5145	6215.270236	48.435469	-7.062544	2.399389	5.201610
5147	6217.350399	48.889613	-6.645757	2.399465	4.993097
5149	6219.434501	48.541742	-7.056353	2.398896	5.130004
5151	6221.517121	48.523312	-7.087431	2.395585	4.957946
5153	6223.601157	48.365809	-6.909505	2.373854	5.351587
5155	6225.688088	48.536874	-6.773462	2.388529	5.137865
5157	6227.769502	48.865720	-6.734621	2.390386	5.047388
5159	6229.851314	48.649646	-6.715851	2.387629	5.126305
5161	6231.931360	48.751898	-6.618305	2.393409	5.266748
5163	6234.011957	48.396517	-6.526730	2.388223	5.151138
5165	6236.095642	48.366188	-6.517003	2.387938	5.135204
5167	6238.179638	48.295453	-6.486563	2.388626	5.301765
5169	6240.264565	48.264127	-6.417375	2.384876	5.317414
5171	6242.346460	48.696646	-6.235822	2.381775	5.163471
5173	6244.430512	48.248352	-6.317805	2.378911	5.169760
5175	6246.512657	48.562236	-6.222147	2.379170	5.315583
5177	6248.596844	48.972422	-5.967017	2.378644	5.458942
5179	6250.678173	48.528948	-6.154191	2.376647	5.360482
5181	6252.760523	48.471610	-6.140863	2.375510	5.220879
5183	6254.843328	48.559775	-6.069116	2.375237	5.029459
5185	6256.923308	49.081043	-6.050127	2.377063	5.076896
5187	6259.005356	48.498018	-5.946722	2.370158	5.320903
5189	6261.084918	48.589732	-5.878597	2.369055	5.409926
5191	6263.167201	48.461387	-5.816059	2.369008	5.284683
5193	6265.252298	48.578428	-5.740302	2.370497	5.308863
5195	6267.336578	48.742368	-5.702162	2.371031	5.299954
5197	6269.420946	48.783754	-5.663048	2.367599	5.357156
5199	6271.503109	48.660126	-5.632325	2.365991	5.165631
5201	6273.585595	48.935619	0.307302	2.334087	5.333620
5203	6275.666353	49.029055	-5.747797	2.362874	5.247826
5205	6277.747190	48.845313	-5.458774	2.360273	5.571777
5207	6279.829958	48.901098	-5.372267	2.362128	5.337201
5209	6281.912045	48.474696	-5.307820	2.356327	5.085607
5211	6283.992862	48.740132	-5.229035	2.358056	5.179140
5213	6286.076817	46.990030	-5.652027	2.367513	5.250685
5215	6288.158882	48.910521	-5.410776	2.356531	5.360909
5217	6290.241736	49.540245	-5.141493	2.337162	5.461313
5219	6292.324897	48.912425	-5.033260	2.356002	5.424413
5221	6294.408160	48.646602	-4.509527	2.362342	5.257264
5223	6296.490563	49.040010	-4.449798	2.360263	5.620667
5225	6298.575633	48.858684	-4.876261	2.354587	5.620156
5227	6300.658611	48.995450	-4.835960	2.351458	5.487251
5229	6302.742461	47.742481	-4.001400	2.353573	5.512839
5231	6304.824025	49.016127	-4.713592	2.346234	5.495020
5233	6306.907179	49.170670	-4.638612	2.346757	5.619779
5235	6308.986231	55.091289	-3.177071	2.350553	5.522250
5237	6311.066962	48.088993	-4.617272	2.332966	5.404501
5239	6313.150395	52.609357	-4.129719	2.359246	5.215798
5241	6315.232624	49.332570	-4.666934	2.345471	5.499467
5243	6317.315644	49.124737	-4.292568	2.345159	5.511563
5245	6319.400504	49.623710	-4.165403	2.349992	5.453727
5247	6321.483100	49.013717	-4.204960	2.343272	5.307999
5249	6323.566109	49.157886	-4.203258	2.343912	5.576814
5251	6325.649080	49.064034	-4.158648	2.342592	5.422873
5253	6327.731033	49.131216	-4.112003	2.342596	5.492665
5255	6329.813926	49.933606	-4.086061	2.345468	5.588316
5257	6331.895645	49.156083	-3.962240	2.339072	5.446603
5259	6333.977431	49.121523	-3.923160	2.336895	5.569706
5261	6336.059319	49.599033	-3.626885	2.337085	5.474385
5263	6338.141555	49.115312	-3.820930	2.336341	5.712310
5265	6340.224411	49.124672	-3.732270	2.337494	5.449949
5267	6342.308914	47.879677	-4.056158	2.347070	5.474264
5269	6344.392982	49.347429	-3.604201	2.335450	5.582025
5271	6346.476752	48.931197	-3.105026	2.342735	5.505004
5273	6348.559933	49.356497	0.650546	2.315221	5.454970
5275	6350.641686	53.986121	3.722959	2.304960	5.577396
5277	6352.724272	49.563138	-3.464270	2.334478	5.586292
5279	6354.804979	49.477680	-3.351868	2.330694	5.544048
5281	6356.887580	49.451106	-3.341076	2.330954	5.760372
5283	6358.969372	49.563256	-3.283057	2.330015	5.691125
5285	6361.051265	49.360899	-2.874614	2.332139	5.607395
5287	6363.132503	49.719694	-2.909375	2.329193	5.656534
5289	6365.215037	49.876368	-3.187155	2.328363	5.639265
5291	6367.298497	49.570083	-3.016323	2.326501	5.728305
5293	6369.380494	49.794868	-2.609601	2.330982	5.644743
5295	6371.463397	49.549494	-2.959269	2.327398	5.745210
5297	6373.547915	49.311123	-2.386446	2.332818	5.589538
5299	6375.630340	48.717995	-1.976561	2.331427	5.623642
5301	6377.714578	49.506121	-2.746382	2.323612	5.685459
5303	6379.797840	49.617768	-2.801626	2.324722	5.642640
5305	6381.881059	49.676936	-2.669468	2.320267	5.745702
5307	6383.962686	50.187797	-2.638801	2.324864	5.737173
5309	6386.044009	50.382188	-2.605015	2.307905	5.740073
5311	6388.125626	49.944260	-2.208817	2.324008	5.739684
5313	6390.204954	48.062832	-2.606772	2.335586	5.767900
5315	6392.288257	52.677774	2.818215	2.294551	5.756011
5317	6394.369473	52.561418	2.449554	2.294890	5.555863
5319	6396.451100	53.230485	2.391197	2.295867	6.359641
5321	6398.534395	52.959235	2.427014	2.295632	5.786370
5323	6400.616979	52.661066	2.349499	2.294530	5.567220
5325	6402.699504	49.413986	-2.216653	2.319482	5.738843
5327	6404.781815	49.377113	-2.142625	2.319285	5.805890
5329	6406.864007	49.364583	-2.122307	2.319115	5.913781
5331	6408.946791	49.293522	-2.056720	2.317758	5.594240
5333	6411.028238	49.368255	-2.015337	2.316521	5.682601
5337	6415.189607	49.248775	-1.950072	2.314829	5.655829
5339	6417.271469	49.007309	-1.861703	2.315566	5.301421
5341	6419.353771	49.042140	-1.808246	2.316061	5.480419
5343	6421.437265	48.912998	-1.766452	2.316447	5.521250
5345	6423.520255	49.144593	-1.707174	2.316962	5.545282
5347	6426.788618	42.588394	5.384075	2.644968	5.528758
5351	6430.949540	56.361110	-2.029896	2.592377	8.987771
5353	6433.032755	56.291220	-1.999024	2.591967	7.698211
5355	6435.115215	56.381857	-2.000565	2.591060	6.945002
5357	6437.196522	56.342554	-1.979103	2.589361	7.009433
5361	6441.363296	56.205340	-1.958836	2.588223	6.878604
5363	6444.336519	45.619928	1.289810	2.595261	7.434742
5367	6448.498689	55.483668	0.091379	2.545667	7.456593
5369	6450.585904	55.345674	0.058458	2.533837	7.148226
5371	6452.664477	55.887993	0.260869	2.540263	7.117878
5373	6454.744110	55.598449	0.149985	2.544237	6.943008
5375	6457.175021	49.045068	2.229723	2.584771	7.333693
5379	6461.336587	47.236752	1.876850	2.575999	5.596740
5381	6463.424232	47.254600	1.917160	2.582115	5.106781
5383	6465.508062	47.674959	1.822327	2.581995	5.140053
5385	6467.585303	47.268856	1.861665	2.571455	5.201307
5387	6469.667255	46.902373	2.008442	2.579450	4.954367
5389	6471.748288	42.148419	4.790808	2.827862	5.208478
5391	6473.827995	41.430961	5.171533	2.813679	3.000680
5393	6475.911608	41.421854	5.137435	2.830240	4.478830
5397	6480.069752	41.199913	5.143929	2.817679	4.449746
5399	6482.158018	41.451934	6.846818	2.838279	3.653105
5401	6484.237536	41.736223	7.375553	2.822902	4.503767
5403	6486.319261	41.462679	7.388442	2.813767	3.091496
5405	6488.394472	41.136262	7.411461	2.819879	4.198623
5409	6492.565348	41.153879	8.393207	2.822288	3.911652
5411	6494.644693	41.250216	8.365522	2.822517	4.162450
5413	6496.729758	40.578531	12.164081	2.888213	3.284042
5415	6498.804141	40.532259	13.004045	2.878935	2.864079
